Energy (eV),Wavelength (A),Cross Section (Mb)
16.118,769.23,71.5595
28.513,434.84,13.5518
40.907,303.08,3.367
53.302,232.61,1.0752
65.697,188.72,0.4084
78.091,158.77,0.1916
90.486,137.02,0.1231
102.881,120.51,0.1079
115.275,107.55,0.112
127.67,97.11,0.1223
140.065,88.52,0.1333
152.459,81.32,0.143
164.854,75.21,0.1507
177.249,69.95,0.1564
189.644,65.38,0.1602
202.038,61.37,0.1623
214.433,57.82,0.163
226.828,54.66,0.1626
239.222,51.83,0.1613
251.617,49.27,0.1593
264.012,46.96,0.1566
276.406,44.86,0.1535
288.801,42.93,0.1501
301.196,41.16,0.1465
313.59,39.54,0.1427
325.985,38.03,0.1388
338.38,36.64,0.1348
350.774,35.35,0.1309
363.169,34.14,0.1269
375.564,33.01,0.123
387.958,31.96,0.1191
400.353,30.97,0.1153
412.748,30.04,0.1116
425.142,29.16,0.108
437.537,28.34,0.1045
449.932,27.56,0.1011
462.326,26.82,0.0977
474.721,26.12,0.0945
487.116,25.45,0.0914
499.51,24.82,0.0884
511.905,24.22,0.0855
524.3,23.65,0.0828
536.694,23.1,0.0801
549.089,22.58,0.0775
561.484,22.08,0.075
573.878,21.6,0.0726
586.273,21.15,0.0703
598.668,20.71,0.068
611.063,20.29,0.0659
623.457,19.89,0.0638
635.852,19.5,0.0618
648.247,19.13,0.0599
660.641,18.77,0.0581
673.036,18.42,0.0563
685.431,18.09,0.0546
697.825,17.77,0.053
710.22,17.46,0.0514
722.615,17.16,0.0498
735.009,16.87,0.0484
747.404,16.59,0.047
759.799,16.32,0.0456
772.193,16.06,0.0443
784.588,15.8,0.043
796.983,15.56,0.0418
809.377,15.32,0.0406
821.772,15.09,0.0395
834.167,14.86,0.0384
846.561,14.65,0.0373
858.956,14.43,0.0362
871.351,14.23,0.0353
883.745,14.03,0.0343
896.14,13.84,0.0334
908.535,13.65,0.0325
920.929,13.46,0.0317
933.324,13.28,0.0308
945.719,13.11,0.03
958.113,12.94,0.0293
970.508,12.78,0.0285
982.903,12.61,0.0278
995.297,12.46,0.0271
1007.692,12.3,0.0264
1020.087,12.15,0.0258
1032.482,12.01,0.0251
1044.876,11.87,0.0245
1057.271,11.73,0.0239
1069.666,11.59,0.0233
1082.06,11.46,0.0228
1094.455,11.33,0.0222
1106.85,11.2,0.0217
1119.244,11.08,0.0212
1131.639,10.96,0.0207
1144.034,10.84,0.0202
1156.428,10.72,0.0197
1168.823,10.61,0.0193
1181.218,10.5,0.0188
1193.612,10.39,0.0184
1206.007,10.28,0.018
1218.402,10.18,0.0176
1230.796,10.07,0.0172
1243.191,9.97,0.0168
1255.586,9.87,0.0165
1267.98,9.78,0.0161
1280.375,9.68,0.0158
1292.77,9.59,0.0154
1305.164,9.5,0.0151
1317.559,9.41,0.0148
1329.954,9.32,0.0145
1342.348,9.24,0.0141
1354.743,9.15,0.0139
1367.138,9.07,0.0136
1379.532,8.99,0.0133
1391.927,8.91,0.013
1404.322,8.83,0.0127
1416.716,8.75,0.0125
1429.111,8.68,0.0122
1441.506,8.6,0.012
1453.901,8.53,0.0118
1466.295,8.46,0.0115
1478.69,8.38,0.0113
1491.085,8.32,0.0111
1503.479,8.25,0.0109
1515.874,8.18,0.0107
1528.269,8.11,0.0104
1540.663,8.05,0.0102
1553.058,7.98,0.0101
1565.453,7.92,0.0099
1577.847,7.86,0.0097
1590.242,7.8,0.0095
1602.637,7.74,0.0093
1615.031,7.68,0.0091
1627.426,7.62,0.009
1639.821,7.56,0.0088
1652.215,7.5,0.0087
1664.61,7.45,0.0085
1677.005,7.39,0.0083
1689.399,7.34,0.0082
1701.794,7.29,0.008
1714.189,7.23,0.0079
1726.583,7.18,0.0078
1738.978,7.13,0.0076
1751.373,7.08,0.0075
1763.767,7.03,0.0074
1776.162,6.98,0.0072
1788.557,6.93,0.0071
1800.951,6.88,0.007
1813.346,6.84,0.0069
1825.741,6.79,0.0068
1838.136,6.75,0.0066
1850.53,6.7,0.0065
1862.925,6.66,0.0064
1875.32,6.61,0.0063
1887.714,6.57,0.0062
1900.109,6.53,0.0061
1912.504,6.48,0.006
1924.898,6.44,0.0059
1937.293,6.4,0.0058
1949.688,6.36,0.0057
1962.082,6.32,0.0056
1974.477,6.28,0.0055
1986.872,6.24,0.0054
1999.266,6.2,0.0054
2011.661,6.16,0.0053
2024.056,6.13,0.0052
2036.45,6.09,0.0051
2048.845,6.05,0.005
2061.24,6.02,0.005
2073.634,5.98,0.0049
2086.029,5.94,0.0048
2098.424,5.91,0.0047
2110.818,5.87,0.0047
2123.213,5.84,0.0046
2135.608,5.81,0.0045
2148.002,5.77,0.0044
2160.397,5.74,0.0044
2172.792,5.71,0.0043
2185.186,5.67,0.0043
2197.581,5.64,0.0042
2209.976,5.61,0.0041
2222.37,5.58,0.0041
2234.765,5.55,0.004
2247.16,5.52,0.0039
2259.555,5.49,0.0039
2271.949,5.46,0.0038
2284.344,5.43,0.0038
2296.739,5.4,0.0037
2309.133,5.37,0.0037
2321.528,5.34,0.0036
2333.923,5.31,0.0036
2346.317,5.28,0.0035
2358.712,5.26,0.0035
2371.107,5.23,0.0034
2383.501,5.2,0.0034
2395.896,5.17,0.0033
2408.291,5.15,0.0033
2420.685,5.12,0.0032
2433.08,5.1,0.0032
2445.475,5.07,0.0031
2457.869,5.04,0.0031
2470.264,5.02,0.0031
2482.659,4.99,0.003
2495.053,4.97,0.003
2507.448,4.94,0.0029
2519.843,4.92,0.0029
2532.237,4.9,0.0029
2544.632,4.87,0.0028
2557.027,4.85,0.0028
2569.421,4.83,0.0028
2581.816,4.8,0.0027
2594.211,4.78,0.0027
2606.605,4.76,0.0026
2619.0,4.73,0.0026
2631.395,4.71,0.0026
2643.789,4.69,0.0025
2656.184,4.67,0.0025
2668.579,4.65,0.0025
2680.974,4.62,0.0024
2693.368,4.6,0.0024
2705.763,4.58,0.0024
2718.158,4.56,0.0024
2730.552,4.54,0.0023
2742.947,4.52,0.0023
2755.342,4.5,0.0023
2767.736,4.48,0.0022
2780.131,4.46,0.0022
2792.526,4.44,0.0022
2804.92,4.42,0.0022
2817.315,4.4,0.0021
2829.71,4.38,0.0021
2842.104,4.36,0.0021
2854.499,4.34,0.0021
2866.894,4.32,0.002
2879.288,4.31,0.002
2891.683,4.29,0.002
2904.078,4.27,0.002
2916.472,4.25,0.0019
2928.867,4.23,0.0019
2941.262,4.22,0.0019
2953.656,4.2,0.0019
2966.051,4.18,0.0018
2978.446,4.16,0.0018
2990.84,4.15,0.0018
3003.235,4.13,0.0018
3015.63,4.11,0.0018
3028.024,4.09,0.0017
3040.419,4.08,0.0017
3052.814,4.06,0.0017
3065.208,4.04,0.0017
3077.603,4.03,0.0017
3089.998,4.01,0.0016
3102.393,4.0,0.0016
3114.787,3.98,0.0016
3127.182,3.96,0.0016
3139.577,3.95,0.0016
3151.971,3.93,0.0016
3164.366,3.92,0.0015
3176.761,3.9,0.0015
3189.155,3.89,0.0015
3201.55,3.87,0.0015
3213.945,3.86,0.0015
3226.339,3.84,0.0015
3238.734,3.83,0.0014
3251.129,3.81,0.0014
3263.523,3.8,0.0014
3275.918,3.78,0.0014
3288.313,3.77,0.0014
3300.707,3.76,0.0013
3313.102,3.74,0.0014
3325.497,3.73,0.0013
3337.891,3.71,0.0014
3350.286,3.7,0.0013
3362.681,3.69,0.0014
3375.075,3.67,0.0008
3387.47,3.66,0.0013
3399.865,3.65,0.0012
3412.259,3.63,0.0012
3424.654,3.62,0.0012
3437.049,3.61,0.0012
3449.443,3.59,0.0012
3461.838,3.58,0.0012
3474.233,3.57,0.0012
3486.627,3.56,0.0012
3499.022,3.54,0.0011
3511.417,3.53,0.0011
3523.812,3.52,0.0011
3536.206,3.51,0.0011
3548.601,3.49,0.0011
3560.996,3.48,0.0011
3573.39,3.47,0.0011
3585.785,3.46,0.0011
3598.18,3.45,0.0011
3610.574,3.43,0.001
3622.969,3.42,0.001
3635.364,3.41,0.001
3647.758,3.4,0.001
3660.153,3.39,0.001
3672.548,3.38,0.001
3684.942,3.36,0.001
3697.337,3.35,0.001
3709.732,3.34,0.001
3722.126,3.33,0.001
3734.521,3.32,0.001
3746.916,3.31,0.0009
3759.31,3.3,0.0009
3771.705,3.29,0.0009
3784.1,3.28,0.0009
3796.494,3.27,0.0009
3808.889,3.26,0.0009
3821.284,3.24,0.0009
3833.678,3.23,0.0009
3846.073,3.22,0.0009
3858.468,3.21,0.0009
3870.862,3.2,0.0009
3883.257,3.19,0.0009
3895.652,3.18,0.0008
3908.047,3.17,0.0008
3920.441,3.16,0.0008
3932.836,3.15,0.0008
3945.231,3.14,0.0008
3957.625,3.13,0.0008
3970.02,3.12,0.0008
3982.415,3.11,0.0008
3994.809,3.1,0.0008
4007.204,3.09,0.0008
4019.599,3.08,0.0008
4031.993,3.08,0.0008
4044.388,3.07,0.0008
4056.783,3.06,0.0007
4069.177,3.05,0.0007
4081.572,3.04,0.0007
4093.967,3.03,0.0007
4106.361,3.02,0.0007
4118.756,3.01,0.0007
4131.151,3.0,0.0007
4143.545,2.99,0.0007
4155.94,2.98,0.0007
4168.335,2.97,0.0007
4180.729,2.97,0.0007
4193.124,2.96,0.0007
4205.519,2.95,0.0007
4217.913,2.94,0.0007
4230.308,2.93,0.0007
4242.703,2.92,0.0007
4255.097,2.91,0.0006
4267.492,2.91,0.0006
4279.887,2.9,0.0006
4292.281,2.89,0.0006
4304.676,2.88,0.0006
4317.071,2.87,0.0006
4329.466,2.86,0.0006
4341.86,2.86,0.0006
4354.255,2.85,0.0006
4366.65,2.84,0.0006
4379.044,2.83,0.0006
4391.439,2.82,0.0006
4403.834,2.82,0.0006
4416.228,2.81,0.0006
4428.623,2.8,0.0006
4441.018,2.79,0.0006
4453.412,2.78,0.0006
4465.807,2.78,0.0006
4478.202,2.77,0.0006
4490.596,2.76,0.0005
4502.991,2.75,0.0005
4515.386,2.75,0.0005
4527.78,2.74,0.0005
4540.175,2.73,0.0005
4552.57,2.72,0.0005
4564.964,2.72,0.0005
4577.359,2.71,0.0005
4589.754,2.7,0.0005
4602.148,2.69,0.0005
4614.543,2.69,0.0005
4626.938,2.68,0.0005
4639.332,2.67,0.0005
4651.727,2.67,0.0005
4664.122,2.66,0.0005
4676.516,2.65,0.0005
4688.911,2.64,0.0005
4701.306,2.64,0.0005
4713.7,2.63,0.0005
4726.095,2.62,0.0005
4738.49,2.62,0.0005
4750.885,2.61,0.0004
4763.279,2.6,0.0004
4775.674,2.6,0.0004
4788.069,2.59,0.0004
4800.463,2.58,0.0004
4812.858,2.58,0.0004
4825.253,2.57,0.0004
4837.647,2.56,0.0004
4850.042,2.56,0.0004
4862.437,2.55,0.0004
4874.831,2.54,0.0004
4887.226,2.54,0.0004
4899.621,2.53,0.0004
4912.015,2.52,0.0004
4924.41,2.52,0.0004
4936.805,2.51,0.0004
4949.199,2.51,0.0004
4961.594,2.5,0.0004
4973.989,2.49,0.0004
4986.383,2.49,0.0004
4998.778,2.48,0.0004
5011.173,2.47,0.0004
5023.567,2.47,0.0003
5035.962,2.46,0.0003
5048.357,2.46,0.0003
5060.751,2.45,0.0003
5073.146,2.44,0.0003
5085.541,2.44,0.0003
5097.935,2.43,0.0003
5110.33,2.43,0.0003
5122.725,2.42,0.0003
5135.119,2.41,0.0003
5147.514,2.41,0.0003
5159.909,2.4,0.0003
5172.304,2.4,0.0003
5184.698,2.39,0.0003
5197.093,2.39,0.0003
5209.488,2.38,0.0003
5221.882,2.37,0.0003
5234.277,2.37,0.0003
5246.672,2.36,0.0003
5259.066,2.36,0.0002
5271.461,2.35,0.0002
5283.856,2.35,0.0002
5296.25,2.34,0.0002
5308.645,2.34,0.0002
5321.04,2.33,0.0002
5333.434,2.32,0.0002
5345.829,2.32,0.0002
5358.224,2.31,0.0002
5370.618,2.31,0.0002
5383.013,2.3,0.0002
5395.408,2.3,0.0002
5407.802,2.29,0.0002
5420.197,2.29,0.0002
5432.592,2.28,0.0002
5444.986,2.28,0.0002
5457.381,2.27,0.0002
5469.776,2.27,0.0002
5482.17,2.26,0.0002
5494.565,2.26,0.0002
5506.96,2.25,0.0002
5519.354,2.25,0.0002
5531.749,2.24,0.0002
5544.144,2.24,0.0002
5556.538,2.23,0.0002
5568.933,2.23,0.0002
5581.328,2.22,0.0002
5593.723,2.22,0.0002
5606.117,2.21,0.0002
5618.512,2.21,0.0002
5630.907,2.2,0.0002
5643.301,2.2,0.0002
5655.696,2.19,0.0002
5668.091,2.19,0.0002
5680.485,2.18,0.0002
5692.88,2.18,0.0002
5705.275,2.17,0.0002
5717.669,2.17,0.0002
5730.064,2.16,0.0002
5742.459,2.16,0.0002
5754.853,2.15,0.0002
5767.248,2.15,0.0002
5779.643,2.15,0.0002
5792.037,2.14,0.0002
5804.432,2.14,0.0003
5816.827,2.13,0.0003
5829.221,2.13,0.0003
5841.616,2.12,0.0003
5854.011,2.12,0.0003
5866.405,2.11,0.0003
5878.8,2.11,0.0003
5891.195,2.1,0.0003
5903.589,2.1,0.0004
5915.984,2.1,0.0004
5928.379,2.09,0.0004
5940.773,2.09,0.0004
5953.168,2.08,0.0004
5965.563,2.08,0.0004
5977.957,2.07,0.0004
5990.352,2.07,0.0004
6002.747,2.07,0.0005
6015.142,2.06,0.0005
6027.536,2.06,0.0005
6039.931,2.05,0.0005
6052.326,2.05,0.0005
6064.72,2.04,0.0005
6077.115,2.04,0.0005
6089.51,2.04,0.0005
6101.904,2.03,0.0005
6114.299,2.03,0.0005
6126.694,2.02,0.0005
6139.088,2.02,0.0005
6151.483,2.02,0.0005
6163.878,2.01,0.0005
6176.272,2.01,0.0005
6188.667,2.0,0.0005
6201.062,2.0,0.0005
6213.456,2.0,0.0005
6225.851,1.99,0.0005
6238.246,1.99,0.0004
6250.64,1.98,0.0004
6263.035,1.98,0.0004
6275.43,1.98,0.0004
6287.824,1.97,0.0004
6300.219,1.97,0.0004
6312.614,1.96,0.0004
6325.008,1.96,0.0004
6337.403,1.96,0.0004
6349.798,1.95,0.0003
6362.192,1.95,0.0003
6374.587,1.94,0.0003
6386.982,1.94,0.0003
6399.377,1.94,0.0003
6411.771,1.93,0.0003
6424.166,1.93,0.0003
6436.561,1.93,0.0003
6448.955,1.92,0.0003
6461.35,1.92,0.0003
6473.745,1.92,0.0002
6486.139,1.91,0.0002
6498.534,1.91,0.0002
6510.929,1.9,0.0002
6523.323,1.9,0.0002
6535.718,1.9,0.0002
6548.113,1.89,0.0002
6560.507,1.89,0.0002
6572.902,1.89,0.0002
6585.297,1.88,0.0002
6597.691,1.88,0.0002
6610.086,1.88,0.0002
6622.481,1.87,0.0002
6634.875,1.87,0.0002
6647.27,1.87,0.0002
6659.665,1.86,0.0002
6672.059,1.86,0.0002
6684.454,1.85,0.0001
6696.849,1.85,0.0001
6709.243,1.85,0.0001
6721.638,1.84,0.0001
6734.033,1.84,0.0001
6746.427,1.84,0.0001
6758.822,1.83,0.0001
6771.217,1.83,0.0001
6783.611,1.83,0.0001
6796.006,1.82,0.0001
6808.401,1.82,0.0001
6820.796,1.82,0.0001
6833.19,1.81,0.0001
6845.585,1.81,0.0001
6857.98,1.81,0.0001
6870.374,1.8,0.0001
6882.769,1.8,0.0001
6895.164,1.8,0.0001
6907.558,1.79,0.0001
6919.953,1.79,0.0001
6932.348,1.79,0.0001
6944.742,1.79,0.0001
6957.137,1.78,0.0001
6969.532,1.78,0.0001
6981.926,1.78,0.0001
6994.321,1.77,0.0001
7006.716,1.77,0.0001
7019.11,1.77,0.0001
7031.505,1.76,0.0001
7043.9,1.76,0.0001
7056.294,1.76,0.0001
7068.689,1.75,0.0001
7081.084,1.75,0.0001
7093.478,1.75,0.0001
7105.873,1.74,0.0001
7118.268,1.74,0.0001
7130.662,1.74,0.0001
7143.057,1.74,0.0001
7155.452,1.73,0.0001
7167.846,1.73,0.0001
7180.241,1.73,0.0001
7192.636,1.72,0.0001
7205.03,1.72,0.0001
7217.425,1.72,0.0001
7229.82,1.71,0.0001
7242.215,1.71,0.0001
7254.609,1.71,0.0001
7267.004,1.71,0.0001
7279.399,1.7,0.0001
7291.793,1.7,0.0001
7304.188,1.7,0.0001
7316.583,1.69,0.0001
7328.977,1.69,0.0001
7341.372,1.69,0.0001
7353.767,1.69,0.0001
7366.161,1.68,0.0001
7378.556,1.68,0.0001
7390.951,1.68,0.0001
7403.345,1.67,0.0001
7415.74,1.67,0.0001
7428.135,1.67,0.0001
7440.529,1.67,0.0001
7452.924,1.66,0.0001
7465.319,1.66,0.0001
7477.713,1.66,0.0001
7490.108,1.66,0.0001
7502.503,1.65,0.0001
7514.897,1.65,0.0001
7527.292,1.65,0.0001
7539.687,1.64,0.0002
7552.081,1.64,0.0011
7564.476,1.64,0.0
7576.871,1.64,0.0
7589.265,1.63,0.0001
7601.66,1.63,0.0001
7614.055,1.63,0.0001
7626.449,1.63,0.0001
7638.844,1.62,0.0001
7651.239,1.62,0.0001
7663.634,1.62,0.0001
7676.028,1.62,0.0001
7688.423,1.61,0.0001
7700.818,1.61,0.0001
7713.212,1.61,0.0001
7725.607,1.6,0.0001
7738.002,1.6,0.0001
7750.396,1.6,0.0001
7762.791,1.6,0.0001
7775.186,1.59,0.0001
7787.58,1.59,0.0001
7799.975,1.59,0.0001
7812.37,1.59,0.0001
7824.764,1.58,0.0001
7837.159,1.58,0.0001
7849.554,1.58,0.0001
7861.948,1.58,0.0001
7874.343,1.57,0.0001
7886.738,1.57,0.0001
7899.132,1.57,0.0001
7911.527,1.57,0.0001
7923.922,1.56,0.0001
7936.316,1.56,0.0001
7948.711,1.56,0.0001
7961.106,1.56,0.0001
7973.5,1.55,0.0001
7985.895,1.55,0.0001
7998.29,1.55,0.0001
8010.684,1.55,0.0001
8023.079,1.55,0.0001
8035.474,1.54,0.0001
8047.868,1.54,0.0001
8060.263,1.54,0.0001
8072.658,1.54,0.0001
8085.053,1.53,0.0001
8097.447,1.53,0.0001
8109.842,1.53,0.0001
8122.237,1.53,0.0001
8134.631,1.52,0.0001
8147.026,1.52,0.0001
8159.421,1.52,0.0001
8171.815,1.52,0.0001
8184.21,1.51,0.0001
8196.605,1.51,0.0001
8208.999,1.51,0.0001
8221.394,1.51,0.0001
8233.789,1.51,0.0001
8246.183,1.5,0.0001
8258.578,1.5,0.0001
8270.973,1.5,0.0001
8283.367,1.5,0.0001
8295.762,1.49,0.0001
8308.157,1.49,0.0001
8320.551,1.49,0.0001
8332.946,1.49,0.0001
8345.341,1.49,0.0001
8357.735,1.48,0.0001
8370.13,1.48,0.0001
8382.525,1.48,0.0001
8394.919,1.48,0.0001
8407.314,1.47,0.0001
8419.709,1.47,0.0001
8432.103,1.47,0.0001
8444.498,1.47,0.0001
8456.893,1.47,0.0001
8469.288,1.46,0.0001
8481.682,1.46,0.0001
8494.077,1.46,0.0001
8506.472,1.46,0.0001
8518.866,1.46,0.0001
8531.261,1.45,0.0001
8543.656,1.45,0.0001
8556.05,1.45,0.0001
8568.445,1.45,0.0001
8580.84,1.44,0.0001
8593.234,1.44,0.0001
8605.629,1.44,0.0001
8618.024,1.44,0.0001
8630.418,1.44,0.0001
8642.813,1.43,0.0001
8655.208,1.43,0.0001
8667.602,1.43,0.0001
8679.997,1.43,0.0001
8692.392,1.43,0.0001
8704.786,1.42,0.0001
8717.181,1.42,0.0001
8729.576,1.42,0.0001
8741.97,1.42,0.0001
8754.365,1.42,0.0001
8766.76,1.41,0.0001
8779.154,1.41,0.0001
8791.549,1.41,0.0001
8803.944,1.41,0.0001
8816.338,1.41,0.0001
8828.733,1.4,0.0001
8841.128,1.4,0.0001
8853.522,1.4,0.0001
8865.917,1.4,0.0001
8878.312,1.4,0.0001
8890.707,1.39,0.0001
8903.101,1.39,0.0001
8915.496,1.39,0.0001
8927.891,1.39,0.0001
8940.285,1.39,0.0001
8952.68,1.38,0.0001
8965.075,1.38,0.0001
8977.469,1.38,0.0001
8989.864,1.38,0.0001
9002.259,1.38,0.0001
9014.653,1.38,0.0001
9027.048,1.37,0.0001
9039.443,1.37,0.0001
9051.837,1.37,0.0001
9064.232,1.37,0.0001
9076.627,1.37,0.0001
9089.021,1.36,0.0001
9101.416,1.36,0.0001
9113.811,1.36,0.0001
9126.205,1.36,0.0001
9138.6,1.36,0.0001
9150.995,1.35,0.0001
9163.389,1.35,0.0001
9175.784,1.35,0.0001
9188.179,1.35,0.0001
9200.573,1.35,0.0001
9212.968,1.35,0.0001
9225.363,1.34,0.0001
9237.757,1.34,0.0001
9250.152,1.34,0.0001
9262.547,1.34,0.0001
9274.941,1.34,0.0001
9287.336,1.33,0.0001
9299.731,1.33,0.0001
9312.126,1.33,0.0001
9324.52,1.33,0.0001
9336.915,1.33,0.0001
9349.31,1.33,0.0001
9361.704,1.32,0.0001
9374.099,1.32,0.0001
9386.494,1.32,0.0001
9398.888,1.32,0.0001
9411.283,1.32,0.0001
9423.678,1.32,0.0001
9436.072,1.31,0.0001
9448.467,1.31,0.0001
9460.862,1.31,0.0001
9473.256,1.31,0.0001
9485.651,1.31,0.0001
9498.046,1.31,0.0001
9510.44,1.3,0.0001
9522.835,1.3,0.0001
9535.23,1.3,0.0001
9547.624,1.3,0.0001
9560.019,1.3,0.0001
9572.414,1.3,0.0001
9584.808,1.29,0.0001
9597.203,1.29,0.0001
9609.598,1.29,0.0001
9621.992,1.29,0.0001
9634.387,1.29,0.0001
9646.782,1.29,0.0001
9659.176,1.28,0.0001
9671.571,1.28,0.0001
9683.966,1.28,0.0001
9696.36,1.28,0.0001
9708.755,1.28,0.0001
9721.15,1.28,0.0001
9733.545,1.27,0.0001
9745.939,1.27,0.0001
9758.334,1.27,0.0001
9770.729,1.27,0.0001
9783.123,1.27,0.0001
9795.518,1.27,0.0001
9807.913,1.26,0.0001
9820.307,1.26,0.0001
9832.702,1.26,0.0001
9845.097,1.26,0.0001
9857.491,1.26,0.0001
9869.886,1.26,0.0001
9882.281,1.25,0.0001
9894.675,1.25,0.0001
9907.07,1.25,0.0001
9919.465,1.25,0.0
9931.859,1.25,0.0
9944.254,1.25,0.0
9956.649,1.25,0.0
9969.043,1.24,0.0
9981.438,1.24,0.0
9993.833,1.24,0.0
10006.227,1.24,0.0
10018.622,1.24,0.0
10031.017,1.24,0.0
10043.411,1.23,0.0
10055.806,1.23,0.0
10068.201,1.23,0.0
10080.595,1.23,0.0
10092.99,1.23,0.0
10105.385,1.23,0.0
10117.779,1.23,0.0
10130.174,1.22,0.0
10142.569,1.22,0.0
10154.964,1.22,0.0
10167.358,1.22,0.0
10179.753,1.22,0.0
10192.148,1.22,0.0
10204.542,1.21,0.0
10216.937,1.21,0.0
10229.332,1.21,0.0
10241.726,1.21,0.0
10254.121,1.21,0.0
10266.516,1.21,0.0
10278.91,1.21,0.0
10291.305,1.2,0.0
10303.7,1.2,0.0
10316.094,1.2,0.0
10328.489,1.2,0.0
10340.884,1.2,0.0
10353.278,1.2,0.0
10365.673,1.2,0.0
10378.068,1.19,0.0
10390.462,1.19,0.0
10402.857,1.19,0.0
10415.252,1.19,0.0
10427.646,1.19,0.0
10440.041,1.19,0.0
10452.436,1.19,0.0
10464.83,1.18,0.0
10477.225,1.18,0.0
10489.62,1.18,0.0
10502.014,1.18,0.0
10514.409,1.18,0.0
10526.804,1.18,0.0
10539.199,1.18,0.0
10551.593,1.18,0.0
10563.988,1.17,0.0
10576.383,1.17,0.0
10588.777,1.17,0.0
10601.172,1.17,0.0
10613.567,1.17,0.0
10625.961,1.17,0.0
10638.356,1.17,0.0
10650.751,1.16,0.0
10663.145,1.16,0.0
10675.54,1.16,0.0
10687.935,1.16,0.0
10700.329,1.16,0.0
10712.724,1.16,0.0
10725.119,1.16,0.0
10737.513,1.15,0.0
10749.908,1.15,0.0
10762.303,1.15,0.0
10774.697,1.15,0.0
10787.092,1.15,0.0
10799.487,1.15,0.0
10811.881,1.15,0.0
10824.276,1.15,0.0
10836.671,1.14,0.0
10849.065,1.14,0.0
10861.46,1.14,0.0
10873.855,1.14,0.0
10886.249,1.14,0.0
10898.644,1.14,0.0
10911.039,1.14,0.0
10923.433,1.14,0.0
10935.828,1.13,0.0
10948.223,1.13,0.0
10960.618,1.13,0.0
10973.012,1.13,0.0
10985.407,1.13,0.0
10997.802,1.13,0.0
11010.196,1.13,0.0
11022.591,1.12,0.0
11034.986,1.12,0.0
11047.38,1.12,0.0
11059.775,1.12,0.0
11072.17,1.12,0.0
11084.564,1.12,0.0
11096.959,1.12,0.0
11109.354,1.12,0.0
11121.748,1.11,0.0
11134.143,1.11,0.0
11146.538,1.11,0.0
11158.932,1.11,0.0
11171.327,1.11,0.0
11183.722,1.11,0.0
11196.116,1.11,0.0
11208.511,1.11,0.0
11220.906,1.1,0.0
11233.3,1.1,0.0
11245.695,1.1,0.0
11258.09,1.1,0.0
11270.484,1.1,0.0
11282.879,1.1,0.0
11295.274,1.1,0.0
11307.668,1.1,0.0
11320.063,1.1,0.0
11332.458,1.09,0.0
11344.852,1.09,0.0
11357.247,1.09,0.0
11369.642,1.09,0.0
11382.037,1.09,0.0
11394.431,1.09,0.0
11406.826,1.09,0.0
11419.221,1.09,0.0
11431.615,1.08,0.0
11444.01,1.08,0.0
11456.405,1.08,0.0
11468.799,1.08,0.0
11481.194,1.08,0.0
11493.589,1.08,0.0
11505.983,1.08,0.0
11518.378,1.08,0.0
11530.773,1.08,0.0
11543.167,1.07,0.0
11555.562,1.07,0.0
11567.957,1.07,0.0
11580.351,1.07,0.0
11592.746,1.07,0.0
11605.141,1.07,0.0
11617.535,1.07,0.0
11629.93,1.07,0.0
11642.325,1.06,0.0
11654.719,1.06,0.0
11667.114,1.06,0.0
11679.509,1.06,0.0
11691.903,1.06,0.0
11704.298,1.06,0.0
11716.693,1.06,0.0
11729.087,1.06,0.0
11741.482,1.06,0.0
11753.877,1.05,0.0
11766.271,1.05,0.0
11778.666,1.05,0.0
11791.061,1.05,0.0
11803.456,1.05,0.0
11815.85,1.05,0.0
11828.245,1.05,0.0
11840.64,1.05,0.0
11853.034,1.05,0.0
11865.429,1.04,0.0
11877.824,1.04,0.0
11890.218,1.04,0.0
11902.613,1.04,0.0
11915.008,1.04,0.0
11927.402,1.04,0.0
11939.797,1.04,0.0
11952.192,1.04,0.0
11964.586,1.04,0.0
11976.981,1.04,0.0
11989.376,1.03,0.0
12001.77,1.03,0.0
12014.165,1.03,0.0
12026.56,1.03,0.0
12038.954,1.03,0.0
12051.349,1.03,0.0
12063.744,1.03,0.0
12076.138,1.03,0.0
12088.533,1.03,0.0
12100.928,1.02,0.0
12113.322,1.02,0.0
12125.717,1.02,0.0
